  3.0800000e-001  1.8500000e-001 -2.7700000e-001 -5.3100000e-001 -2.0750000e-001 -1.9200000e-001 -9.2000000e-002  8.5000000e-002  2.3100000e-001  2.4600000e-001  2.5400000e-001  2.4600000e-001  2.5400000e-001  2.6900000e-001  2.6550000e-001  2.7700000e-001  2.7700000e-001  2.6900000e-001  2.7700000e-001  3.0000000e-001  3.0000000e-001  3.1500000e-001  3.0800000e-001  3.0000000e-001  3.0400000e-001  2.9200000e-001  2.7700000e-001  2.7700000e-001  2.3100000e-001  2.2300000e-001  2.0000000e-001  1.8500000e-001  1.6900000e-001  1.2300000e-001  8.8500000e-002  2.3000000e-002  1.5000000e-002  5.4000000e-002 -6.9000000e-002 -3.0350000e-001 -3.0000000e-001 -1.8500000e-001  2.3000000e-002  1.3800000e-001  2.2300000e-001  2.5400000e-001  2.6200000e-001  2.7700000e-001  2.8500000e-001  2.8850000e-001  3.0000000e-001  2.9200000e-001  3.3100000e-001  3.3800000e-001  3.4600000e-001  3.5400000e-001  3.3800000e-001  3.3100000e-001  3.5400000e-001  3.3450000e-001  3.0800000e-001  3.0000000e-001  2.7700000e-001  2.3800000e-001  2.3800000e-001  2.2300000e-001  2.3100000e-001  2.2300000e-001  2.2300000e-001  2.1500000e-001  2.2300000e-001  2.1500000e-001  2.0000000e-001  2.1500000e-001  2.1900000e-001  2.2300000e-001  2.2300000e-001  2.1500000e-001  2.2300000e-001  2.3050000e-001  2.3100000e-001  2.0800000e-001  2.2300000e-001  2.2300000e-001  2.0000000e-001  2.1500000e-001  2.0800000e-001  2.0800000e-001  2.1500000e-001  2.1500000e-001  2.0800000e-001  2.1500000e-001  2.1500000e-001  2.2300000e-001  2.2300000e-001  2.3100000e-001  2.3100000e-001  2.3100000e-001  2.0000000e-001  1.9200000e-001  2.0000000e-001  1.9200000e-001  2.0000000e-001  2.2300000e-001  3.4600000e-001  4.6900000e-001  2.7700000e-001 -1.9200000e-001 -3.7700000e-001 -2.6900000e-001 -2.0800000e-001 -1.1500000e-001  2.3000000e-002  1.3800000e-001  2.0000000e-001  2.4600000e-001  2.4600000e-001  2.6200000e-001  2.3800000e-001  2.5000000e-001  2.6200000e-001  2.3100000e-001  2.6900000e-001  2.7700000e-001  2.8850000e-001  2.9200000e-001  2.9200000e-001  2.8500000e-001  2.6200000e-001  2.5400000e-001  2.1500000e-001  2.2300000e-001  2.1500000e-001  2.0000000e-001  1.9200000e-001  1.6200000e-001  1.4600000e-001  1.3100000e-001  1.2300000e-001  7.3000000e-002  1.5000000e-002 -9.2000000e-002 -1.7700000e-001 -1.3100000e-001  3.5000000e-003  8.5000000e-002  1.5400000e-001  3.6200000e-001  4.6200000e-001  3.5400000e-001  1.6900000e-001  9.2000000e-002  1.1500000e-001  1.3800000e-001  1.4600000e-001  1.3100000e-001  1.2300000e-001  1.3100000e-001  1.0800000e-001  1.1500000e-001  1.0800000e-001  1.0000000e-001  7.7000000e-002  6.2000000e-002  4.6000000e-002  3.1000000e-002  0.0000000e+000 -2.3000000e-002 -4.6000000e-002 -4.2000000e-002 -3.1000000e-002 -2.3000000e-002 -2.3000000e-002  0.0000000e+000  3.8000000e-002  6.9000000e-002  5.4000000e-002  6.9000000e-002  9.2000000e-002  1.0000000e-001  1.0800000e-001  1.0000000e-001  1.3100000e-001  1.4600000e-001  1.3050000e-001  1.6200000e-001  1.4600000e-001  1.5400000e-001  1.4600000e-001  1.6550000e-001  1.7700000e-001  1.9200000e-001  2.0000000e-001  2.0800000e-001  2.1150000e-001  2.1500000e-001  2.1500000e-001  2.1500000e-001  2.0800000e-001  2.6150000e-001  3.0000000e-001  1.1500000e-001 -4.3800000e-001 -4.0800000e-001 -1.8100000e-001 -1.7700000e-001 -3.8000000e-002  1.6200000e-001  2.3800000e-001  2.6200000e-001  2.4600000e-001  2.4600000e-001  2.6200000e-001  2.5400000e-001  2.5800000e-001  2.6900000e-001  2.7700000e-001  2.8500000e-001  2.8500000e-001  3.0400000e-001  2.9200000e-001  2.9200000e-001  3.0000000e-001  2.8500000e-001  2.8500000e-001  2.7700000e-001  2.6900000e-001  2.6200000e-001  2.4600000e-001  2.1500000e-001  2.0800000e-001  1.8500000e-001  1.5400000e-001  1.2300000e-001  6.5500000e-002  8.0000000e-003  3.1000000e-002  7.7000000e-002 -1.2300000e-001 -3.0750000e-001 -2.6900000e-001 -1.0800000e-001  6.9000000e-002  2.1500000e-001  2.6550000e-001  2.7700000e-001  2.5400000e-001  2.6200000e-001  2.6200000e-001  2.7700000e-001  2.7700000e-001  2.7700000e-001  3.0800000e-001  3.2300000e-001  3.4200000e-001  3.4600000e-001  3.4600000e-001  3.3800000e-001  3.3800000e-001  3.1900000e-001  3.0000000e-001  2.9200000e-001  2.6900000e-001  2.5400000e-001  2.5000000e-001  2.5400000e-001  2.4600000e-001  2.3100000e-001  2.3800000e-001  2.5000000e-001  2.3100000e-001  2.2300000e-001  2.4600000e-001  2.3100000e-001  2.2300000e-001  2.2300000e-001  2.1500000e-001  2.1500000e-001  2.1500000e-001  2.2300000e-001  2.0000000e-001  2.0800000e-001  2.3100000e-001  2.0000000e-001  2.0000000e-001  2.0000000e-001  2.0800000e-001  1.9200000e-001  2.0000000e-001  2.0400000e-001  2.0000000e-001  2.0800000e-001  2.1500000e-001  2.3800000e-001  2.4600000e-001  2.5400000e-001  2.6900000e-001  2.5400000e-001  2.1500000e-001  2.0800000e-001  2.1500000e-001  2.0800000e-001  2.0800000e-001  2.4600000e-001  4.1950000e-001  4.8500000e-001  1.7700000e-001 -3.3100000e-001 -3.0800000e-001 -2.5400000e-001 -1.8500000e-001 -8.5000000e-002  6.9000000e-002  1.5400000e-001  2.1150000e-001  2.3100000e-001  2.3100000e-001  2.3100000e-001  2.3100000e-001  2.3450000e-001  2.3800000e-001  2.6200000e-001  2.6900000e-001  2.7700000e-001  3.0000000e-001  2.7700000e-001  3.0000000e-001  2.7700000e-001  2.9200000e-001  2.5800000e-001  2.4600000e-001  2.1500000e-001  2.4600000e-001  2.2300000e-001  2.0000000e-001  1.6200000e-001  1.5400000e-001  1.2300000e-001  1.1500000e-001  4.6000000e-002 -2.3000000e-002 -1.4600000e-001 -2.0000000e-001 -1.0000000e-001  3.4500000e-002  7.7000000e-002  1.8500000e-001  4.1500000e-001  4.2300000e-001  3.0000000e-001  9.2000000e-002  7.7000000e-002  1.1500000e-001  1.3800000e-001  1.5800000e-001  1.3800000e-001  1.5400000e-001  1.2300000e-001  1.3100000e-001  1.2300000e-001  1.3800000e-001  1.2300000e-001  1.0000000e-001  6.9000000e-002  6.5500000e-002  2.3000000e-002 -8.0000000e-003 -2.3000000e-002 -3.8000000e-002 -5.0000000e-002 -5.4000000e-002 -3.1000000e-002 -2.3000000e-002  8.0000000e-003  3.8500000e-002  3.8000000e-002  6.2000000e-002  7.7000000e-002  7.7000000e-002  7.3000000e-002  1.0000000e-001  1.0000000e-001  1.2300000e-001  1.3800000e-001  1.4200000e-001  1.4600000e-001  1.6200000e-001  1.7700000e-001  1.8500000e-001  1.9600000e-001  2.0800000e-001  2.0800000e-001  2.3100000e-001  2.2300000e-001  2.1500000e-001  2.2300000e-001  2.2300000e-001  2.2300000e-001  2.1500000e-001  2.6950000e-001  3.0000000e-001 -8.0000000e-003 -6.5400000e-001 -2.4600000e-001 -2.0400000e-001 -1.8500000e-001  8.0000000e-003  2.0800000e-001  2.4600000e-001  2.4600000e-001  2.2300000e-001  2.3800000e-001  2.4600000e-001  2.6200000e-001  2.7300000e-001  2.7700000e-001  2.6900000e-001  2.6200000e-001  2.8500000e-001  2.9200000e-001  3.1500000e-001  3.1500000e-001  3.0000000e-001  3.0800000e-001  3.0800000e-001  2.7700000e-001  2.6900000e-001  2.3100000e-001  2.1500000e-001  1.8850000e-001  1.7700000e-001  1.4600000e-001  1.4600000e-001  9.2000000e-002  3.4500000e-002 -8.0000000e-003  5.4000000e-002  5.4000000e-002 -2.3100000e-001 -3.5400000e-001 -2.6900000e-001 -7.7000000e-002  7.7000000e-002  2.0800000e-001  2.6550000e-001  2.6900000e-001  2.6200000e-001  2.8500000e-001  2.6900000e-001  2.9200000e-001  3.0000000e-001  3.2300000e-001  3.2300000e-001  3.2300000e-001  3.2700000e-001  3.3800000e-001  3.3800000e-001  3.4600000e-001  3.3100000e-001  3.0750000e-001  2.7700000e-001  2.7700000e-001  2.4600000e-001  2.3100000e-001  2.2300000e-001  2.3800000e-001  2.2300000e-001  2.3100000e-001  2.3800000e-001  2.2700000e-001  2.1500000e-001  2.0800000e-001  2.2300000e-001  2.2300000e-001  2.1500000e-001  2.3100000e-001  2.1500000e-001  2.1500000e-001  2.3100000e-001  2.2700000e-001  2.0000000e-001  2.3800000e-001  2.2300000e-001  2.0000000e-001  2.1150000e-001  2.1500000e-001  2.1500000e-001  2.0800000e-001  2.0000000e-001  2.0800000e-001  2.0000000e-001  2.0000000e-001  2.0800000e-001  2.3100000e-001  2.2300000e-001  2.4600000e-001  2.3800000e-001  2.3100000e-001  2.1500000e-001  2.0000000e-001  2.0000000e-001  2.0800000e-001  2.2300000e-001  2.7700000e-001  4.5400000e-001  4.8500000e-001  1.0000000e-001 -4.5400000e-001 -2.6200000e-001 -2.5000000e-001 -1.6200000e-001 -3.1000000e-002  1.3100000e-001  2.0800000e-001  2.4600000e-001  2.3100000e-001  2.6900000e-001  2.6200000e-001  2.3800000e-001  2.6550000e-001  2.6200000e-001  2.6200000e-001  2.6900000e-001  2.6900000e-001  2.9200000e-001  2.6200000e-001  2.9200000e-001  2.7700000e-001  2.6900000e-001  2.4600000e-001  2.2300000e-001  2.0000000e-001  2.2300000e-001  2.0000000e-001  1.9200000e-001  1.6900000e-001  1.5400000e-001  1.3800000e-001  1.2300000e-001  4.2000000e-002 -1.5000000e-002 -1.3800000e-001 -1.8500000e-001 -5.4000000e-002  8.8500000e-002  1.0800000e-001  2.4600000e-001  4.8500000e-001  4.2300000e-001  2.6150000e-001  7.7000000e-002  7.7000000e-002  1.2300000e-001  1.4600000e-001  1.3800000e-001  1.2300000e-001  1.3100000e-001  1.1500000e-001  1.1500000e-001  1.1150000e-001  1.1500000e-001  9.2000000e-002  7.7000000e-002  6.2000000e-002  6.5500000e-002  2.3000000e-002  8.0000000e-003 -8.0000000e-003 -2.3000000e-002 -3.1000000e-002 -3.8000000e-002 -8.0000000e-003  0.0000000e+000  2.3000000e-002  6.1500000e-002  6.9000000e-002  9.2000000e-002  9.2000000e-002  9.2000000e-002  9.6000000e-002  1.1500000e-001  1.0800000e-001  1.1500000e-001  1.4600000e-001  1.3100000e-001  1.3800000e-001  1.5400000e-001  1.6200000e-001  1.7700000e-001  1.8500000e-001  1.8500000e-001  2.0800000e-001  2.0800000e-001  2.0000000e-001  1.8850000e-001  2.0800000e-001  2.2300000e-001  2.1500000e-001  2.2300000e-001  3.0750000e-001  2.3800000e-001 -1.5400000e-001 -6.3800000e-001 -1.7700000e-001 -1.8500000e-001 -1.2300000e-001  6.9000000e-002  2.4600000e-001  2.3800000e-001  2.3800000e-001  2.3100000e-001  2.5400000e-001  2.6200000e-001  2.4600000e-001  2.6550000e-001  2.6200000e-001  2.5400000e-001  2.6200000e-001  2.8500000e-001  2.8100000e-001  3.1500000e-001  3.0800000e-001  2.8500000e-001  2.7700000e-001  2.7700000e-001  2.7700000e-001  2.6200000e-001  2.5400000e-001  2.3100000e-001  2.1150000e-001  1.9200000e-001  1.6900000e-001  1.3800000e-001  1.0000000e-001  2.7000000e-002  8.0000000e-003  6.9000000e-002 -8.0000000e-003 -2.5400000e-001 -3.3050000e-001 -2.0000000e-001  0.0000000e+000  1.4600000e-001  2.3800000e-001  2.6200000e-001  2.6900000e-001  2.8500000e-001  2.6900000e-001  2.6200000e-001  2.7700000e-001  2.9200000e-001  3.0800000e-001  3.0800000e-001  3.2300000e-001  3.3450000e-001  3.2300000e-001  3.2300000e-001  3.4600000e-001  3.4600000e-001  3.1550000e-001  3.0800000e-001  2.9200000e-001  2.7700000e-001  2.4600000e-001  2.3800000e-001  2.4600000e-001  2.3100000e-001  2.3800000e-001  2.3100000e-001  2.1900000e-001  2.3100000e-001  2.0800000e-001  2.1500000e-001  2.1500000e-001  1.9600000e-001  2.0000000e-001  2.0800000e-001  2.0000000e-001  2.1500000e-001  2.1500000e-001  2.1500000e-001  2.1500000e-001  2.1500000e-001  2.0800000e-001  2.0800000e-001  2.1500000e-001  2.0000000e-001  2.2300000e-001  2.1500000e-001  2.1150000e-001  2.3100000e-001  2.2300000e-001  2.2300000e-001  2.4600000e-001  2.4200000e-001  2.5400000e-001  2.4600000e-001  2.3100000e-001  2.1500000e-001  2.0400000e-001  2.2300000e-001  2.1500000e-001  2.3100000e-001  3.1500000e-001  4.5400000e-001  3.4600000e-001 -8.5000000e-002 -4.0000000e-001 -2.6900000e-001 -2.4200000e-001 -1.3100000e-001 -8.0000000e-003  1.3100000e-001  2.0000000e-001  2.2300000e-001  2.2300000e-001  2.6200000e-001  2.5400000e-001  2.3100000e-001  2.6200000e-001  2.6200000e-001  2.5400000e-001  2.7700000e-001  2.7700000e-001  2.8500000e-001  2.8500000e-001  2.8500000e-001  2.6900000e-001  2.6900000e-001  2.4650000e-001  2.0800000e-001  2.2300000e-001  2.3100000e-001  2.0800000e-001  1.6900000e-001  1.5400000e-001  1.3800000e-001  1.1500000e-001  9.2000000e-002  1.1500000e-002 -8.5000000e-002 -1.8500000e-001 -1.6200000e-001 -3.1000000e-002  6.2000000e-002  1.3800000e-001  3.0800000e-001  4.4600000e-001  3.6900000e-001  2.1150000e-001  1.0000000e-001  1.1500000e-001  1.3800000e-001  1.5400000e-001  1.4200000e-001  1.4600000e-001  1.4600000e-001  1.2300000e-001  1.2300000e-001  1.2700000e-001  1.0800000e-001  8.5000000e-002  6.9000000e-002  5.4000000e-002  3.0500000e-002  8.0000000e-003 -3.1000000e-002 -3.8000000e-002 -3.8000000e-002 -5.0000000e-002 -3.8000000e-002 -3.1000000e-002 -2.3000000e-002  2.3000000e-002  4.6000000e-002  4.6000000e-002  7.7000000e-002  9.2000000e-002  9.2000000e-002  1.0000000e-001  1.1500000e-001  1.2300000e-001  1.5400000e-001  1.4600000e-001  1.4600000e-001  1.6900000e-001  1.8500000e-001  1.6900000e-001  1.8500000e-001  1.9600000e-001  1.9200000e-001  2.0000000e-001  2.2300000e-001  2.1500000e-001  2.0000000e-001  2.1500000e-001  2.0800000e-001  2.2300000e-001  2.4600000e-001  2.9200000e-001  1.4600000e-001 -3.6200000e-001 -4.6200000e-001 -2.0800000e-001 -1.9600000e-001 -6.9000000e-002  1.1500000e-001  2.3100000e-001  2.5400000e-001  2.3450000e-001  2.4600000e-001  2.5400000e-001  2.6200000e-001  2.6900000e-001  2.8100000e-001  2.7700000e-001  2.6900000e-001  2.6900000e-001  2.8500000e-001  2.9600000e-001  3.2300000e-001  2.9200000e-001  3.0000000e-001  3.0000000e-001  2.8100000e-001  2.7700000e-001  2.5400000e-001  2.3100000e-001  2.1500000e-001  2.0400000e-001  1.6900000e-001  1.4600000e-001  1.2300000e-001  7.7000000e-002  4.0000000e-003  8.0000000e-003  5.4000000e-002 -6.9000000e-002 -2.7700000e-001 -2.9600000e-001 -1.3100000e-001  5.4000000e-002  1.7700000e-001  2.6200000e-001  2.8500000e-001  2.7700000e-001  2.6900000e-001  2.7700000e-001  2.9200000e-001  2.9600000e-001  3.0800000e-001  3.0800000e-001  3.0800000e-001  3.3100000e-001  3.2700000e-001  3.3800000e-001  3.3100000e-001  3.3100000e-001  3.3100000e-001  3.0400000e-001  2.9200000e-001  2.7700000e-001  2.6200000e-001  2.3100000e-001  2.1900000e-001  2.3800000e-001  2.2300000e-001  2.1500000e-001  2.0800000e-001  2.3450000e-001  2.1500000e-001  2.1500000e-001  2.3800000e-001  2.2300000e-001  2.3450000e-001  2.2300000e-001  2.2300000e-001  2.1500000e-001  2.3800000e-001  2.2700000e-001  2.2300000e-001  2.3100000e-001  2.0800000e-001  1.9200000e-001  2.0000000e-001  2.0000000e-001  1.9200000e-001  1.9200000e-001  1.9200000e-001  2.0400000e-001  2.1500000e-001  2.1500000e-001  2.2300000e-001  2.3100000e-001  2.2700000e-001  2.3100000e-001  2.2300000e-001  2.1500000e-001  2.0800000e-001  2.0800000e-001  2.3100000e-001  2.2300000e-001  2.6900000e-001  3.8500000e-001  5.0000000e-001  2.6900000e-001 -2.4600000e-001 -3.3800000e-001 -2.4600000e-001 -2.0000000e-001 -9.2000000e-002  5.4000000e-002  1.6200000e-001  2.0000000e-001  2.1500000e-001  2.3100000e-001  2.3800000e-001  2.3100000e-001  2.4600000e-001  2.4600000e-001  2.4600000e-001  2.6900000e-001  2.7700000e-001  2.7700000e-001  2.7700000e-001  2.7700000e-001  2.7700000e-001  2.7700000e-001  2.6200000e-001  2.2700000e-001  2.0800000e-001  2.2300000e-001  2.0800000e-001  2.0800000e-001  1.8450000e-001  1.6200000e-001  1.3800000e-001  1.2300000e-001  7.7000000e-002  1.1500000e-002 -1.1500000e-001 -1.8500000e-001 -1.3100000e-001  8.0000000e-003  6.5500000e-002  1.6200000e-001  3.7700000e-001  4.3800000e-001  3.3800000e-001  1.3050000e-001  6.9000000e-002  1.0000000e-001  1.3100000e-001  1.3800000e-001  1.1900000e-001  1.2300000e-001  1.2300000e-001  1.1500000e-001  1.2300000e-001  1.1500000e-001  1.0800000e-001  9.2000000e-002  7.7000000e-002  6.9000000e-002  5.8000000e-002  1.5000000e-002  0.0000000e+000 -2.3000000e-002 -3.8000000e-002 -3.4500000e-002 -1.5000000e-002 -8.0000000e-003  8.0000000e-003  4.6000000e-002  5.0000000e-002  6.2000000e-002  6.9000000e-002  7.7000000e-002  6.9000000e-002  1.0000000e-001  1.0000000e-001  1.0800000e-001  1.2300000e-001  1.3100000e-001  1.3800000e-001  1.7700000e-001  1.6200000e-001  1.7700000e-001  2.0000000e-001  2.0400000e-001  2.0800000e-001  2.0800000e-001  2.0800000e-001  2.0000000e-001  2.0400000e-001  2.1500000e-001  2.1500000e-001  2.2300000e-001  2.7700000e-001  3.0800000e-001
