  5.0000000e-002  6.6100000e-001  9.9700000e-001  1.0900000e+000  1.1300000e+000  1.1550000e+000  1.1770000e+000  1.1860000e+000  1.1930000e+000  1.2020000e+000  1.2020000e+000  1.2080000e+000  1.2020000e+000  1.2170000e+000  1.2170000e+000  1.2270000e+000  1.2330000e+000  1.2580000e+000  1.2760000e+000  1.3110000e+000  1.3230000e+000  1.3510000e+000  1.3570000e+000  1.3480000e+000  1.3170000e+000  1.2860000e+000  1.2420000e+000  1.2080000e+000  1.1610000e+000  1.1300000e+000  1.1060000e+000  1.0810000e+000  1.0710000e+000  1.0620000e+000  1.0560000e+000  1.0470000e+000  1.0560000e+000  1.0370000e+000  1.0370000e+000  1.0310000e+000  1.0370000e+000  1.0310000e+000  1.0370000e+000  1.0310000e+000  1.0370000e+000  1.0500000e+000  1.0620000e+000  1.0710000e+000  1.0810000e+000  1.0560000e+000  1.0400000e+000  1.0250000e+000  1.0120000e+000  9.8100000e-001  9.7200000e-001  9.9100000e-001  9.8800000e-001  9.8800000e-001  9.9700000e-001  1.0000000e+000  9.8800000e-001  9.9700000e-001  9.8800000e-001  9.5700000e-001  9.1000000e-001  6.0600000e-001  2.4500000e-001 -1.8000000e-001  4.3000000e-002  6.2400000e-001  9.5000000e-001  1.0710000e+000  1.1060000e+000  1.1460000e+000  1.1550000e+000  1.1710000e+000  1.1770000e+000  1.1860000e+000  1.1960000e+000  1.2020000e+000  1.2080000e+000  1.1960000e+000  1.2110000e+000  1.2360000e+000  1.2700000e+000  1.2610000e+000  1.2610000e+000  1.2860000e+000  1.3230000e+000  1.3350000e+000  1.3910000e+000  1.4470000e+000  1.4320000e+000  1.3980000e+000  1.2760000e+000  1.1610000e+000  1.1060000e+000  1.0810000e+000  1.0710000e+000  1.0500000e+000  1.0400000e+000  1.0370000e+000  1.0310000e+000  1.0250000e+000  1.0220000e+000  1.0310000e+000  1.0160000e+000  1.0310000e+000  1.0220000e+000  1.0250000e+000  1.0160000e+000  1.0160000e+000  1.0120000e+000  1.0470000e+000  1.0470000e+000  1.0620000e+000  1.0620000e+000  1.0560000e+000  1.0250000e+000  1.0250000e+000  1.0000000e+000  9.8800000e-001  9.8800000e-001  9.9700000e-001  9.7500000e-001  9.7200000e-001  9.8800000e-001  9.8800000e-001  9.8100000e-001  9.8800000e-001  9.8100000e-001  9.4700000e-001  9.2500000e-001  6.4600000e-001  3.0400000e-001 -1.5500000e-001  1.2000000e-002  5.8100000e-001  9.4100000e-001  1.0470000e+000  1.1020000e+000  1.1150000e+000  1.1430000e+000  1.1460000e+000  1.1710000e+000  1.1680000e+000  1.1770000e+000  1.1770000e+000  1.1860000e+000  1.1860000e+000  1.1960000e+000  1.2020000e+000  1.2200000e+000  1.2330000e+000  1.2610000e+000  1.2860000e+000  1.3230000e+000  1.3510000e+000  1.3630000e+000  1.3660000e+000  1.3320000e+000  1.2980000e+000  1.2580000e+000  1.2110000e+000  1.1680000e+000  1.1370000e+000  1.0960000e+000  1.0810000e+000  1.0560000e+000  1.0560000e+000  1.0370000e+000  1.0400000e+000  1.0310000e+000  1.0370000e+000  1.0160000e+000  1.0220000e+000  1.0120000e+000  1.0120000e+000  1.0060000e+000  1.0000000e+000  1.0120000e+000  1.0370000e+000  1.0400000e+000  1.0560000e+000  1.0620000e+000  1.0470000e+000  1.0310000e+000  9.9700000e-001  9.5000000e-001  8.5700000e-001  7.8600000e-001  7.5200000e-001  8.2900000e-001  1.0500000e+000  1.4160000e+000  1.6740000e+000  1.8630000e+000  1.9630000e+000  1.8390000e+000  1.5470000e+000  1.3010000e+000  1.0250000e+000  9.2200000e-001  8.9100000e-001  8.7000000e-001  8.5700000e-001  8.4500000e-001  8.5100000e-001  8.4500000e-001  8.5700000e-001  8.4500000e-001  8.5700000e-001  8.4500000e-001  8.4200000e-001  8.1700000e-001  7.9500000e-001  7.6100000e-001  7.3900000e-001  7.0500000e-001  6.8900000e-001  6.8000000e-001  7.0500000e-001  7.3000000e-001  7.8000000e-001  8.2000000e-001  8.7000000e-001  9.1000000e-001  9.6000000e-001  9.8800000e-001  1.0120000e+000  1.0250000e+000  1.0470000e+000  1.0560000e+000  1.0500000e+000  1.0650000e+000  1.0620000e+000  1.0710000e+000  1.0650000e+000  1.0710000e+000  1.0620000e+000  1.0650000e+000  1.0620000e+000  1.0650000e+000  1.0560000e+000  1.0620000e+000  1.0470000e+000  1.0620000e+000  1.0470000e+000  1.0780000e+000  1.0810000e+000  1.1020000e+000  1.1120000e+000  1.1060000e+000  1.0810000e+000  1.0810000e+000  1.0650000e+000  1.0470000e+000  1.0370000e+000  1.0370000e+000  1.0470000e+000  1.0250000e+000  1.0310000e+000  1.0250000e+000  1.0310000e+000  1.0160000e+000  1.0310000e+000  1.0120000e+000  9.7500000e-001  8.5700000e-001  5.2500000e-001  1.0900000e-001 -1.2700000e-001  2.4500000e-001  7.9500000e-001  1.0310000e+000  1.1210000e+000  1.1520000e+000  1.1770000e+000  1.1860000e+000  1.1960000e+000  1.2020000e+000  1.2110000e+000  1.2200000e+000  1.2110000e+000  1.2200000e+000  1.2200000e+000  1.2330000e+000  1.2360000e+000  1.2580000e+000  1.2700000e+000  1.3070000e+000  1.3260000e+000  1.3660000e+000  1.3880000e+000  1.4010000e+000  1.3820000e+000  1.3660000e+000  1.3230000e+000  1.2860000e+000  1.2360000e+000  1.1960000e+000  1.1460000e+000  1.1150000e+000  1.0870000e+000  1.0780000e+000  1.0620000e+000  1.0620000e+000  1.0470000e+000  1.0370000e+000  1.0400000e+000  1.0370000e+000  1.0400000e+000  1.0310000e+000  1.0370000e+000  1.0310000e+000  1.0370000e+000  1.0250000e+000  1.0560000e+000  1.0560000e+000  1.0780000e+000  1.0710000e+000  1.0780000e+000  1.0370000e+000  1.0310000e+000  1.0060000e+000  9.8100000e-001  9.8100000e-001  9.9100000e-001  9.8100000e-001  9.7200000e-001  9.8800000e-001  9.8800000e-001  9.9100000e-001  9.8800000e-001  9.9100000e-001  9.5700000e-001  9.3200000e-001  6.6100000e-001  3.2000000e-001 -1.3700000e-001 -1.6800000e-001  5.4000000e-001  9.3200000e-001  1.0470000e+000  1.1060000e+000  1.1210000e+000  1.1460000e+000  1.1520000e+000  1.1770000e+000  1.1770000e+000  1.1860000e+000  1.1770000e+000  1.1930000e+000  1.1860000e+000  1.2020000e+000  1.2110000e+000  1.2200000e+000  1.2360000e+000  1.2670000e+000  1.2920000e+000  1.3230000e+000  1.3570000e+000  1.3510000e+000  1.3630000e+000  1.3350000e+000  1.3010000e+000  1.2580000e+000  1.2170000e+000  1.1610000e+000  1.1300000e+000  1.0870000e+000  1.0710000e+000  1.0500000e+000  1.0470000e+000  1.0310000e+000  1.0370000e+000  1.0160000e+000  1.0250000e+000  1.0120000e+000  1.0160000e+000  1.0060000e+000  1.0120000e+000  1.0160000e+000  1.0060000e+000  1.0160000e+000  1.0310000e+000  1.0400000e+000  1.0500000e+000  1.0620000e+000  1.0370000e+000  1.0310000e+000  1.0060000e+000  9.8800000e-001  9.6000000e-001  9.8100000e-001  9.7200000e-001  9.7500000e-001  9.6600000e-001  9.8800000e-001  9.7500000e-001  9.8100000e-001  9.7200000e-001  9.8100000e-001  9.3500000e-001  9.0700000e-001  5.9600000e-001  2.2400000e-001 -1.6800000e-001  8.4000000e-002  6.5500000e-001  9.5700000e-001  1.0560000e+000  1.0900000e+000  1.1270000e+000  1.1300000e+000  1.1520000e+000  1.1520000e+000  1.1770000e+000  1.1680000e+000  1.1770000e+000  1.1680000e+000  1.1860000e+000  1.1860000e+000  1.2020000e+000  1.2080000e+000  1.2360000e+000  1.2520000e+000  1.2860000e+000  1.3170000e+000  1.3510000e+000  1.3630000e+000  1.3510000e+000  1.3230000e+000  1.2860000e+000  1.2450000e+000  1.1960000e+000  1.1520000e+000  1.1060000e+000  1.0870000e+000  1.0620000e+000  1.0500000e+000  1.0370000e+000  1.0400000e+000  1.0310000e+000  1.0370000e+000  1.0220000e+000  1.0250000e+000  1.0120000e+000  1.0220000e+000  1.0120000e+000  1.0120000e+000  1.0000000e+000  1.0160000e+000  1.0310000e+000  1.0400000e+000  1.0500000e+000  1.0620000e+000  1.0470000e+000  1.0370000e+000  1.0160000e+000  9.9700000e-001  9.7200000e-001  9.6600000e-001  9.8800000e-001  9.7500000e-001  9.7200000e-001  9.8100000e-001  9.8800000e-001  9.8100000e-001  9.8100000e-001  9.7200000e-001  9.4700000e-001  8.9400000e-001  5.9600000e-001  2.3300000e-001 -2.1100000e-001 -2.4200000e-001  5.0900000e-001  9.2200000e-001  1.0620000e+000  1.1120000e+000  1.1430000e+000  1.1550000e+000  1.1710000e+000  1.1860000e+000  1.1930000e+000  1.2020000e+000  1.1960000e+000  1.2080000e+000  1.2080000e+000  1.2200000e+000  1.2200000e+000  1.2420000e+000  1.2450000e+000  1.2700000e+000  1.2920000e+000  1.3260000e+000  1.3420000e+000  1.3660000e+000  1.3510000e+000  1.3420000e+000  1.2980000e+000  1.2610000e+000  1.2170000e+000  1.1770000e+000  1.1370000e+000  1.1060000e+000  1.0810000e+000  1.0710000e+000  1.0620000e+000  1.0500000e+000  1.0560000e+000  1.0470000e+000  1.0560000e+000  1.0400000e+000  1.0370000e+000  1.0310000e+000  1.0370000e+000  1.0250000e+000  1.0250000e+000  1.0220000e+000  1.0500000e+000  1.0560000e+000  1.0650000e+000  1.0620000e+000  1.0470000e+000  1.0220000e+000  1.0220000e+000  9.9100000e-001  9.7500000e-001  9.8800000e-001  9.8100000e-001  9.9100000e-001  9.7200000e-001  9.9100000e-001  9.8800000e-001  9.9100000e-001  9.8100000e-001  9.8800000e-001  9.3500000e-001  8.6000000e-001  5.0900000e-001  1.1800000e-001 -2.2700000e-001  1.2400000e-001  7.0500000e-001  9.9700000e-001  1.0710000e+000  1.1150000e+000  1.1300000e+000  1.1520000e+000  1.1610000e+000  1.1770000e+000  1.1770000e+000  1.1930000e+000  1.1860000e+000  1.1960000e+000  1.2020000e+000  1.2080000e+000  1.2170000e+000  1.2270000e+000  1.2450000e+000  1.2670000e+000  1.2980000e+000  1.3260000e+000  1.3570000e+000  1.3510000e+000  1.3420000e+000  1.3110000e+000  1.2830000e+000  1.2360000e+000  1.1960000e+000  1.1520000e+000  1.1270000e+000  1.0900000e+000  1.0780000e+000  1.0560000e+000  1.0560000e+000  1.0370000e+000  1.0400000e+000  1.0250000e+000  1.0370000e+000  1.0310000e+000  1.0220000e+000  1.0250000e+000  1.0120000e+000  1.0220000e+000  1.0120000e+000  1.0160000e+000  1.0310000e+000  1.0400000e+000  1.0370000e+000  1.0620000e+000  1.0470000e+000  1.0310000e+000  1.0160000e+000  1.0060000e+000  9.7200000e-001  9.8100000e-001  9.8100000e-001  9.8800000e-001  9.6600000e-001  9.8800000e-001  9.7500000e-001  9.8800000e-001  9.8100000e-001  9.8800000e-001  9.5700000e-001  9.3200000e-001  7.2700000e-001  4.0100000e-001 -7.8000000e-002 -1.8600000e-001  4.3500000e-001  8.8200000e-001  1.0370000e+000  1.0870000e+000  1.1210000e+000  1.1370000e+000  1.1520000e+000  1.1610000e+000  1.1770000e+000  1.1770000e+000  1.1860000e+000  1.1930000e+000  1.2020000e+000  1.1960000e+000  1.2110000e+000  1.2170000e+000  1.2360000e+000  1.2520000e+000  1.2860000e+000  1.3110000e+000  1.3480000e+000  1.3630000e+000  1.3570000e+000  1.3350000e+000  1.3010000e+000  1.2670000e+000  1.2200000e+000  1.1800000e+000  1.1300000e+000  1.1060000e+000  1.0810000e+000  1.0620000e+000  1.0400000e+000  1.0400000e+000  1.0310000e+000  1.0310000e+000  1.0220000e+000  1.0250000e+000  1.0120000e+000  1.0160000e+000  1.0120000e+000  1.0160000e+000  1.0120000e+000  1.0220000e+000  1.0310000e+000  1.0470000e+000  1.0620000e+000  1.0560000e+000  1.0620000e+000  1.0310000e+000  1.0160000e+000  9.9700000e-001  9.7200000e-001  9.6600000e-001  9.8100000e-001  9.5000000e-001  9.1600000e-001  8.4500000e-001  7.6700000e-001  7.5500000e-001  9.0100000e-001  1.1860000e+000  1.5280000e+000  1.8290000e+000  1.8540000e+000  1.5370000e+000  1.2700000e+000  9.9700000e-001  9.2500000e-001  9.2500000e-001  9.2500000e-001  9.0700000e-001  9.0700000e-001  9.1000000e-001  9.0700000e-001  9.1600000e-001  9.1600000e-001  9.2200000e-001  9.1600000e-001  9.2200000e-001  9.1000000e-001  9.0100000e-001  8.7000000e-001  8.6000000e-001  8.2600000e-001  8.2000000e-001  8.0400000e-001  8.2000000e-001  8.2600000e-001  8.5100000e-001  8.7000000e-001  9.0700000e-001  9.3500000e-001  9.6600000e-001  9.8800000e-001  1.0060000e+000  1.0220000e+000  1.0370000e+000  1.0400000e+000  1.0500000e+000  1.0620000e+000  1.0620000e+000  1.0620000e+000  1.0560000e+000  1.0620000e+000  1.0560000e+000  1.0620000e+000  1.0500000e+000  1.0560000e+000  1.0400000e+000  1.0500000e+000  1.0470000e+000  1.0780000e+000  1.0810000e+000  1.0960000e+000  1.0870000e+000  1.0810000e+000  1.0650000e+000  1.0620000e+000  1.0370000e+000  1.0220000e+000  1.0250000e+000  1.0220000e+000  1.0250000e+000  1.0120000e+000  1.0220000e+000  1.0120000e+000  1.0160000e+000  1.0120000e+000  1.0220000e+000  9.7200000e-001  9.1000000e-001  5.7500000e-001  2.3300000e-001 -1.8000000e-001  9.0000000e-003  5.9000000e-001  9.8800000e-001  1.0960000e+000  1.1550000e+000  1.1770000e+000  1.2020000e+000  1.2110000e+000  1.2200000e+000  1.2200000e+000  1.2330000e+000  1.2200000e+000  1.2270000e+000  1.2360000e+000  1.2270000e+000  1.2450000e+000  1.2520000e+000  1.2700000e+000  1.2860000e+000  1.3170000e+000  1.3480000e+000  1.3760000e+000  1.3820000e+000  1.3880000e+000  1.3480000e+000  1.3320000e+000  1.2830000e+000  1.2450000e+000  1.1930000e+000  1.1520000e+000  1.1120000e+000  1.0960000e+000  1.0710000e+000  1.0650000e+000  1.0500000e+000  1.0560000e+000  1.0400000e+000  1.0370000e+000  1.0400000e+000  1.0370000e+000  1.0310000e+000  1.0250000e+000  1.0370000e+000  1.0220000e+000  1.0310000e+000  1.0400000e+000  1.0620000e+000  1.0560000e+000  1.0810000e+000  1.0620000e+000  1.0470000e+000  1.0220000e+000
